lambda_mic,tau
1.0,4.807029163973209
1.01,4.726399434524919
1.02,4.647896678478814
1.03,4.571444750737617
1.04,4.496970935727576
1.05,4.424405761849531
1.06,4.353682827619071
1.07,4.284738638657245
1.08,4.217512454760858
1.09,4.1519461463425715
1.1,4.087984059587049
1.11,4.025572889720425
1.12,3.9646615618370915
1.1300000000000001,3.9052011187704307
1.1400000000000001,3.847144615533206
1.1500000000000001,3.7904470198890516
1.1600000000000001,3.7350651186493766
1.1700000000000002,3.68095742931996
1.1800000000000002,3.6280841167492337
1.1900000000000002,3.576406914455576
1.2000000000000002,3.525889050334224
1.2100000000000002,3.4764951764659577
1.2200000000000002,3.428191302769412
1.2300000000000002,3.3809447342570693
1.2400000000000002,3.3347240116718244
1.2500000000000002,3.2894988552964453
1.2600000000000002,3.2452401117425804
1.2700000000000002,3.201919703539167
1.2800000000000002,3.1595105813523032
1.2900000000000003,3.1179866786799364
1.3000000000000003,3.0773228688751875
1.3100000000000003,3.037494924361805
1.3200000000000003,2.998479477914212
1.3300000000000003,2.9602539858829395
1.3400000000000003,2.9227966932539515
1.3500000000000003,2.886086600437529
1.3600000000000003,2.850103431689058
1.3700000000000003,2.8148276050702257
1.3800000000000003,2.780240203864898
1.3900000000000003,2.746322949369297
1.4000000000000004,2.7130581749810925
1.4100000000000004,2.6804288015166358
1.4200000000000004,2.648418313689917
1.4300000000000004,2.6170107376908454
1.4400000000000004,2.586190619804201
1.4500000000000004,2.5559430060141484
1.4600000000000004,2.5262534225424376
1.4700000000000004,2.497107857271528
1.4800000000000004,2.4684927420066765
1.4900000000000004,2.4403949355337615
1.5000000000000004,2.4128017074320733
1.5100000000000005,2.385700722603676
1.5200000000000005,2.359080026483111
1.5300000000000005,2.3329280308932985
1.5400000000000005,2.3072335005153817
1.5500000000000005,2.28198553994211
1.5600000000000005,2.257173581285981
1.5700000000000005,2.2327873723150544
1.5800000000000005,2.2088169650907163
1.5900000000000005,2.185252705083192
1.6000000000000005,2.162085220741824
1.6100000000000005,2.1393054134984526
1.6200000000000006,2.116904448183321
1.6300000000000006,2.094873743834089
1.6400000000000006,2.073204964879521
1.6500000000000006,2.051890012680404
1.6600000000000006,2.030921017411171
1.6700000000000006,2.0102903302665336
1.6800000000000006,1.9899905159782785
1.6900000000000006,1.9700143456281165
1.7000000000000006,1.950354789743199
1.7100000000000006,1.9310050116616115
1.7200000000000006,1.911958361155768
1.7300000000000006,1.8932083683022616
1.7400000000000007,1.8747487375872889
1.7500000000000007,1.8565733422372845
1.7600000000000007,1.8386762187649652
1.7700000000000007,1.8210515617213976
1.7800000000000007,1.8036937186452149
1.7900000000000007,1.7865971852005205
1.8000000000000007,1.769756600495402
1.8100000000000007,1.7531667425734128
1.8200000000000007,1.7368225240707027
1.8300000000000007,1.7207189880318423
1.8400000000000007,1.704851303877713
1.8500000000000008,1.6892147635191512
1.8600000000000008,1.6738047776103229
1.8700000000000008,1.658616871936072
1.8800000000000008,1.643646683927786
1.8900000000000008,1.6288899593025428
1.9000000000000008,1.6143425488205507
1.9100000000000008,1.6000004051561183
1.9200000000000008,1.5858595798776238
1.9300000000000008,1.5719162205321295
1.9400000000000008,1.558166567830496
1.9500000000000008,1.5446069529290436
1.9600000000000009,1.5312337948039711
1.9700000000000009,1.5180435977149045
1.9800000000000009,1.50503294875413
1.9900000000000009,1.4921985154781907
2.000000000000001,1.4795370436186863
2.0100000000000007,1.4670453548692453
2.020000000000001,1.4547203447457726
2.030000000000001,1.442558980517199
2.040000000000001,1.4305582992040715
2.0500000000000007,1.4187154056424418
2.060000000000001,1.4070274706106227
2.070000000000001,1.3954917290164714
2.080000000000001,1.3841054781429656
2.0900000000000007,1.372866075949919
2.100000000000001,1.3617709394298034
2.110000000000001,1.3508175430156815
2.120000000000001,1.3400034170393802
2.130000000000001,1.3293261462380697
2.140000000000001,1.3187833683075372
2.1500000000000012,1.308372772500462
2.160000000000001,1.2980920982681046
2.170000000000001,1.2879391339438582
2.180000000000001,1.2779117154672053
2.1900000000000013,1.2680077251466428
2.200000000000001,1.2582250904602277
2.210000000000001,1.2485617828924178
2.220000000000001,1.2390158168059768
2.2300000000000013,1.229585248347705
2.240000000000001,1.2202681743868593
2.250000000000001,1.2110627314851277
2.260000000000001,1.2019670948970989
2.2700000000000014,1.192979477600186
2.280000000000001,1.1840981293530066
2.290000000000001,1.1753213357812846
2.300000000000001,1.1666474174903196
2.3100000000000014,1.1580747292031823
2.320000000000001,1.1496016589237388
2.330000000000001,1.1412266271237237
2.340000000000001,1.1329480859530396
2.3500000000000014,1.1247645184725539
2.360000000000001,1.1166744379086286
2.370000000000001,1.1086763869287033
2.3800000000000012,1.1007689369372347
2.3900000000000015,1.0929506873913555
2.4000000000000012,1.0852202651355947
2.410000000000001,1.0775763237550802
2.4200000000000013,1.0700175429466097
2.4300000000000015,1.0625426279070522
2.4400000000000013,1.0551503087385086
2.450000000000001,1.047839339869716
2.4600000000000013,1.0406084994931948
2.4700000000000015,1.0334565890176386
2.4800000000000013,1.026382432535075
2.490000000000001,1.0193848763023468
2.5000000000000013,1.0124627882364692
2.5100000000000016,1.005615057423439
2.5200000000000014,0.9988405936400866
2.530000000000001,0.9921383268885675
2.5400000000000014,0.9855072069431242
2.5500000000000016,0.9789462029087328
2.5600000000000014,0.9724543027912916
2.570000000000001,0.9660305130789919
2.5800000000000014,0.9596738583345559
2.5900000000000016,0.9533833807979978
2.6000000000000014,0.947158139999616
2.610000000000001,0.9409972123829013
2.6200000000000014,0.9348996909370801
2.6300000000000017,0.9288646848390024
2.6400000000000015,0.9228913191041077
2.6500000000000012,0.9169787342462061
2.6600000000000015,0.9111260859458133
2.6700000000000017,0.905332544726802
2.6800000000000015,0.8995972956411235
2.6900000000000013,0.8939195379613732
2.7000000000000015,0.8882984848809741
2.7100000000000017,0.8827333632217663
2.7200000000000015,0.8772234131487856
2.7300000000000013,0.8717678878920389
2.7400000000000015,0.8663660534750655
2.7500000000000018,0.8610171884501154
2.7600000000000016,0.8557205836397378
2.7700000000000014,0.8504755418846172
2.7800000000000016,0.8452813777974785
2.790000000000002,0.8401374175228952
2.8000000000000016,0.8350429985028371
2.8100000000000014,0.8299974692478002
2.8200000000000016,0.8250001891133721
2.830000000000002,0.8200505280820752
2.8400000000000016,0.8151478665503553
2.8500000000000014,0.810291595120568
2.8600000000000017,0.8054811143978354
2.870000000000002,0.8007158347916384
2.8800000000000017,0.7959951763220183
2.8900000000000015,0.7913185684302679
2.9000000000000017,0.7866854497939902
2.910000000000002,0.7820952681464102
2.9200000000000017,0.7775474800998293
2.9300000000000015,0.7730415509731092
2.9400000000000017,0.7685769546230871
2.950000000000002,0.7641531732798109
2.9600000000000017,0.7597696973855042
2.9700000000000015,0.7554260254371549
2.9800000000000018,0.7511216638326447
2.990000000000002,0.7468561267203192
3.0000000000000018,0.7426289358519141
3.0100000000000016,0.7384396204387529
3.020000000000002,0.7342877170111299
3.030000000000002,0.730172769280802
3.040000000000002,0.726094328006506
3.0500000000000016,0.7220519508624246
3.060000000000002,0.7180452023095351
3.070000000000002,0.7140736534697583
3.080000000000002,0.7101368820028453
3.0900000000000016,0.706234471985927
3.100000000000002,0.7023660137956693
3.110000000000002,0.6985311039929609
3.120000000000002,0.6947293452100779
3.1300000000000017,0.6909603460402566
3.140000000000002,0.6872237209296259
3.150000000000002,0.6835190900714335
3.160000000000002,0.6798460793025121
3.1700000000000017,0.6762043200019315
3.180000000000002,0.6725934489917871
3.190000000000002,0.669013108440067
3.200000000000002,0.665462945765553
3.2100000000000017,0.6619426135447033
3.220000000000002,0.6584517694204718
3.230000000000002,0.6549900760130181
3.240000000000002,0.6515572008322612
3.2500000000000018,0.6481528161922341
3.260000000000002,0.6447765991271971
3.2700000000000022,0.6414282313094724
3.280000000000002,0.6381073989689489
3.290000000000002,0.6348137928142313
3.300000000000002,0.6315471079553846
3.3100000000000023,0.6283070438282441
3.320000000000002,0.6250933041202508
3.330000000000002,0.6219055966977768
3.340000000000002,0.6187436335349092
3.3500000000000023,0.6156071306436576
3.360000000000002,0.6124958080055501
3.370000000000002,0.6094093895045916
3.380000000000002,0.6063476028615467
3.3900000000000023,0.603310179569525
3.400000000000002,0.6002968548308304
3.410000000000002,0.5973073674950548
3.420000000000002,0.5943414599983794
3.4300000000000024,0.5913988783040669
3.440000000000002,0.5884793718441066
3.450000000000002,0.5855826934619963
3.460000000000002,0.5827085993566277
3.4700000000000024,0.5798568490272609
3.480000000000002,0.5770272052195516
3.490000000000002,0.5742194338726182
3.500000000000002,0.5714333040671196
3.5100000000000025,0.5686685879743266
3.5200000000000022,0.5659250608061593
3.530000000000002,0.5632025007661754
3.5400000000000023,0.5605006890014835
3.5500000000000025,0.5578194095555659
3.5600000000000023,0.5551584493219891
3.570000000000002,0.5525175979989814
3.5800000000000023,0.5498966480448617
3.5900000000000025,0.5472953946343017
3.6000000000000023,0.5447136356153984
3.610000000000002,0.5421511714675478
3.6200000000000023,0.5396078052600948
3.6300000000000026,0.5370833426117503
3.6400000000000023,0.5345775916507505
3.650000000000002,0.5320903629757535
3.6600000000000024,0.5296214696174474
3.6700000000000026,0.5271707270008626
3.6800000000000024,0.5247379529083692
3.690000000000002,0.522322967443347
3.7000000000000024,0.5199255929945141
3.7100000000000026,0.5175456542009004
3.7200000000000024,0.5151829779174507
3.730000000000002,0.5128373931812502
3.7400000000000024,0.51050873117835
3.7500000000000027,0.5081968252111922
3.7600000000000025,0.5059015106666107
3.7700000000000022,0.5036226249844048
3.7800000000000025,0.5013600076264693
3.7900000000000027,0.4991135000464713
3.8000000000000025,0.496882945660063
3.8100000000000023,0.4946681898156177
3.8200000000000025,0.4924690797654826
3.8300000000000027,0.49028546463773137
3.8400000000000025,0.4881171954084155
3.8500000000000023,0.48596412487429563
3.8600000000000025,0.4838261076260491
3.8700000000000028,0.4817030000219415
3.8800000000000026,0.4795946601619558
3.8900000000000023,0.47750094786236535
3.9000000000000026,0.4754217246307477
3.910000000000003,0.4733568536414258
3.9200000000000026,0.4713061997113321
3.9300000000000024,0.46926962927628324
3.9400000000000026,0.4672470103676618
3.950000000000003,0.4652382125894932
3.9600000000000026,0.4632431070959129
3.9700000000000024,0.46126156656901585
3.9800000000000026,0.4592934651970777
3.990000000000003,0.4573386786531477
4.000000000000003,0.4553970840739973
4.0100000000000025,0.4534685600394253
4.020000000000003,0.4515529865519079
4.030000000000003,0.4496502450165904
4.040000000000003,0.4477602182216099
4.0500000000000025,0.4458827903187487
4.060000000000002,0.44401784680440676
4.070000000000003,0.44216527450088905
4.080000000000003,0.44032496153800377
4.0900000000000025,0.4384967973349629
4.100000000000003,0.436680672582581
4.110000000000003,0.43487647922576667
4.120000000000003,0.4330841104462997
4.130000000000003,0.4313034606458916
4.140000000000002,0.4295344254295212
4.150000000000003,0.4277769015890427
4.160000000000003,0.4260307870870591
4.170000000000003,0.424295981041058
4.180000000000003,0.42257238370780337
4.190000000000003,0.4208598964679818
4.200000000000003,0.4191584218110922
4.210000000000003,0.41746786332058256
4.220000000000002,0.41578812565922374
4.230000000000003,0.4141191145547181
4.240000000000003,0.4124607367855374
4.250000000000003,0.4108129001669892
4.260000000000003,0.4091755135375029
4.270000000000003,0.407548486745136
4.280000000000003,0.4059317306342934
4.290000000000003,0.404325157032658
4.3000000000000025,0.4027286787383285
4.310000000000003,0.4011422095071591
4.320000000000003,0.3995656640403019
4.330000000000003,0.3979989579719414
4.340000000000003,0.3964420078572257
4.350000000000003,0.3948947311603856
4.360000000000003,0.3933570462430392
4.370000000000003,0.3918288723526821
4.380000000000003,0.3903101296113547
4.390000000000003,0.3888007390044881
4.400000000000003,0.3873006223699246
4.410000000000003,0.3858097023871064
4.4200000000000035,0.38432790256643523
4.430000000000003,0.3828551472387964
4.440000000000003,0.3813913615452442
4.450000000000003,0.3799364714268485
4.460000000000003,0.3784904036146973
4.470000000000003,0.3770530856200557
4.480000000000003,0.3756244457246745
4.490000000000003,0.3742044129712494
4.5000000000000036,0.37279291715402774
4.510000000000003,0.3713898888095589
4.520000000000003,0.3699952592075879
4.530000000000003,0.3686089603420874
4.540000000000003,0.3672309249224301
4.550000000000003,0.36586108636469344
4.560000000000003,0.3644993787831009
4.570000000000003,0.36314573698159136
4.580000000000004,0.36180009644552014
4.590000000000003,0.360462393333486
4.600000000000003,0.3591325644692833
4.610000000000003,0.357810547333978
4.620000000000003,0.3564962800581033
4.6300000000000034,0.3551897014139769
4.640000000000003,0.3538907508081344
4.650000000000003,0.352599368273878
4.660000000000004,0.3513154944639409
4.6700000000000035,0.35003907064326223
4.680000000000003,0.3487700386818736
4.690000000000003,0.3475083410478943
4.700000000000003,0.3462539208006331
4.7100000000000035,0.3450067215837972
4.720000000000003,0.3437666876188037
4.730000000000003,0.342533763698195
4.740000000000004,0.3413078951791544
4.7500000000000036,0.34008902797712187
4.760000000000003,0.3388771085595076
4.770000000000003,0.3376720839395034
4.780000000000003,0.33647390166998803
4.790000000000004,0.3352825098375275
4.800000000000003,0.33409785705646866
4.810000000000003,0.3329198924631236
4.820000000000004,0.33174856571004346
4.830000000000004,0.330583826960384
4.840000000000003,0.3294256268823551
4.850000000000003,0.328273916643761
4.860000000000003,0.3271286479066226
4.870000000000004,0.3259897728218863
4.8800000000000034,0.3248572440242149
4.890000000000003,0.32373101462686177
4.900000000000004,0.3226110382166242
4.910000000000004,0.32149726884887947
4.9200000000000035,0.3203896610426977
4.930000000000003,0.319288169776034
4.940000000000003,0.3181927504809979
4.950000000000004,0.3171033590391973
4.9600000000000035,0.3160199517771608
4.970000000000003,0.3149424854618305
4.980000000000004,0.31387091729613165
4.990000000000004,0.3128052049146137
5.0000000000000036,0.31174530637916237
5.010000000000003,0.3106911801747835
5.020000000000003,0.309642785205458
5.030000000000004,0.3086000807900642
5.040000000000004,0.3075630266583713
5.050000000000003,0.30653158294709804
5.060000000000004,0.30550571019604106
5.070000000000004,0.3044853693442692
5.080000000000004,0.3034705217263823
5.090000000000003,0.30246112906883643
5.100000000000003,0.301457153486335
5.110000000000004,0.3004585574782805
5.120000000000004,0.29946530392529286
5.1300000000000034,0.2984773560857882
5.140000000000004,0.2974946775926221
5.150000000000004,0.2965172324497926
5.160000000000004,0.2955449850292053
5.1700000000000035,0.29457790006749845
5.180000000000003,0.2936159426629293
5.190000000000004,0.2926590782723193
5.200000000000004,0.2917072727080585
5.2100000000000035,0.2907604921351692
5.220000000000004,0.28981870306842644
5.230000000000004,0.2888818723695399
5.240000000000004,0.28794996724438915
5.2500000000000036,0.2870229552403183
5.260000000000003,0.28610080424348755
5.270000000000004,0.2851834824762807
5.280000000000004,0.2842709584947686
5.290000000000004,0.28336320118622876
5.300000000000004,0.28246017976671994
5.310000000000004,0.28156186377871345
5.320000000000004,0.2806682230887774
5.330000000000004,0.27977922788531673
5.340000000000003,0.2788948486763679
5.350000000000004,0.2780150562874477
5.360000000000004,0.2771398218594558
5.370000000000004,0.2762691168466311
5.380000000000004,0.2754029130145624
5.390000000000004,0.27454118243825254
5.400000000000004,0.27368389750023536
5.410000000000004,0.27283103088874594
5.4200000000000035,0.27198255559594525
5.430000000000004,0.2711384449161963
5.440000000000004,0.2702986724443948
5.450000000000004,0.26946321207435125
5.460000000000004,0.2686320379972268
5.470000000000004,0.267805124700023
5.480000000000004,0.2669824469641216
5.490000000000004,0.26616397986388024
5.5000000000000036,0.26534969876527936
5.510000000000004,0.2645395793246222
5.520000000000004,0.2637335974872889
5.530000000000004,0.2629317294865413
5.5400000000000045,0.26213395184238364
5.550000000000004,0.2613402413604748
5.560000000000004,0.26055057513109364
5.570000000000004,0.25976493052815985
5.580000000000004,0.2589832852083053
5.590000000000004,0.25820561711000234
5.600000000000004,0.25743190445274444
5.610000000000004,0.2566621257362809
5.6200000000000045,0.255896259739906
5.630000000000004,0.25513428552180395
5.640000000000004,0.25437618241844756
5.650000000000004,0.2536219300440523
5.660000000000004,0.2528715082900859
5.670000000000004,0.2521248973248336
5.680000000000004,0.2513820775930208
5.690000000000004,0.2506430298154888
5.700000000000005,0.24990773498893104
5.710000000000004,0.24917617438568485
5.720000000000004,0.2484483295535804
5.730000000000004,0.247724182315848
5.740000000000004,0.2470037147710841
5.750000000000004,0.24628690929327635
5.760000000000004,0.2455737485318871
5.770000000000004,0.24486421541199746
5.780000000000005,0.2441582931345113
5.7900000000000045,0.24345596517642104
5.800000000000004,0.24275721529113364
5.810000000000004,0.24206202750885963
5.820000000000004,0.24137038613706416
5.8300000000000045,0.2406822757609816
5.840000000000004,0.23999768124419418
5.850000000000004,0.23931658772927508
5.860000000000005,0.23863898063849634
5.8700000000000045,0.2379648456746037
5.880000000000004,0.23729416882165685
5.890000000000004,0.23662693634593904
5.900000000000004,0.2359631347969327
5.910000000000005,0.23530275100836545
5.920000000000004,0.23464577209932644
5.930000000000004,0.23399218547545234
5.940000000000005,0.2333419788301849
5.950000000000005,0.2326951401461025
5.960000000000004,0.23205165769632335
5.970000000000004,0.23141152004598484
5.980000000000004,0.2307747160537966
5.990000000000005,0.23014123487367136
6.000000000000004,0.22951106595643284
6.010000000000004,0.2288841990516019
6.020000000000005,0.22826062420926266
6.030000000000005,0.2276403317820092
6.0400000000000045,0.2270233124269748
6.050000000000004,0.22640955710794325
6.060000000000004,0.22579905709754555
6.070000000000005,0.22519180397954144
6.0800000000000045,0.22458778965118836
6.090000000000004,0.22398700632569835
6.100000000000005,0.22338944653478476
6.110000000000005,0.22279510313129933
6.1200000000000045,0.2222039692919625
6.130000000000004,0.2216160385201866
6.140000000000004,0.22103130464899534
6.150000000000005,0.22044976184403908
6.160000000000005,0.21987140460670945
6.170000000000004,0.21929622777735305
6.180000000000005,0.21872422653858814
6.190000000000005,0.21815539641872275
6.200000000000005,0.2175897332952796
6.210000000000004,0.21702723339862676
6.220000000000004,0.21646789331571709
6.230000000000005,0.2159117099939386
6.240000000000005,0.2153586807450764
6.250000000000004,0.21480880324938914
6.260000000000005,0.2142620755598024
6.270000000000005,0.21371849610621865
6.280000000000005,0.21317806369994932
6.2900000000000045,0.21264077753826813
6.300000000000004,0.21210663720908907
6.310000000000005,0.2115756426957721
6.320000000000005,0.21104779438205606
6.3300000000000045,0.2105230930571252
6.340000000000005,0.2100015399208068
6.350000000000005,0.2094831365889077
6.360000000000005,0.20896788509868675
6.3700000000000045,0.20845578791447034
